6.963267177343368530e-02
1.461408019065856934e+00
2.852623730897903442e+00
4.843184411525726318e+00
6.407557368278503418e+00
7.108386456966400146e+00
6.559464514255523682e+00
4.456128120422363281e+00
1.134288845583796501e+00
-1.886313462629914284e+00
-3.880871132016181946e+00
-5.363741368055343628e+00
-5.659897923469543457e+00
-3.813345745205879211e+00
-1.442992433905601501e+00
2.595961648970842361e+00
9.253745686262845993e+00
1.568070137500762939e+01
2.228896221518516541e+01
2.470843863487243652e+01
2.198235327005386353e+01
1.727168898284435272e+01
7.921088121831417084e+00
-4.017443221062421799e+00
-1.543445117771625519e+01
-2.534557025134563446e+01
-3.589909508824348450e+01
-4.102598747611045837e+01
-4.408709804713726044e+01
-4.151917658746242523e+01
-3.364391390234231949e+01
-2.512296250462532043e+01
-1.425097478926181793e+01
-2.161044005304574966e+00
3.851650074124336243e+00
5.825211547315120697e+00
1.815521679818630219e+00
-5.282530888915061951e+00
-1.268824681267142296e+01
-1.680485215783119202e+01
-1.757698116265237331e+01
-1.572425661236047745e+01
-3.537260800600051880e+00
1.087969527207314968e+01
2.875998155772686005e+01
4.204205571115016937e+01
5.521739217638969421e+01
5.956199693679809570e+01
5.525561325252056122e+01
4.922055611014366150e+01
3.032181646674871445e+01
1.642007901892066002e+01
7.591289728879928589e-01
-1.545434800349175930e+01
-3.224622555263340473e+01
-4.169456898793578148e+01
-5.402398400381207466e+01
-6.715102160163223743e+01
-7.838042360544204712e+01
-8.535021716356277466e+01
-8.592021220922470093e+01
-7.552598014473915100e+01
-5.806769101321697235e+01
-2.840115640312433243e+01
6.125557778403162956e+00
4.602755037322640419e+01
8.144791884720325470e+01
9.952333226799964905e+01
1.075481449663639069e+02
1.056089212000370026e+02
9.551822423934936523e+01
7.707924067974090576e+01
4.169253432378172874e+01
1.200933318398892879e+01
-1.799920863285660744e+01
-3.568777528218924999e+01
-4.765377264469861984e+01
-5.990019659698009491e+01
-7.190615172684192657e+01
-7.281706187874078751e+01
-7.268696801364421844e+01
-6.900639408081769943e+01
-6.060151600465178490e+01
-6.097558337077498436e+01
-6.364248733222484589e+01
-6.861092946678400040e+01
-8.274691531807184219e+01
-9.456700767204165459e+01
-9.930978816747665405e+01
-8.993413457274436951e+01
-5.840934038162231445e+01
-1.887653557211160660e+01
2.790917951427400112e+01
6.880177679099142551e+01
1.138255607187747955e+02
1.412776704430580139e+02
1.515787256956100464e+02
1.501827099323272705e+02
1.275568679273128510e+02
8.923791989684104919e+01
4.794618038833141327e+01
-9.659019706770777702e+00
-4.512363159656524658e+01
-7.004757516086101532e+01
-9.267415580898523331e+01
-9.567863029986619949e+01
-9.201920718885958195e+01
-7.988961866497993469e+01
-6.880517293512821198e+01
-6.413217683136463165e+01
-6.770902584493160248e+01
-6.289118465036153793e+01
-6.974762846902012825e+01
-7.025352395512163639e+01
-6.259554249607026577e+01
-3.284190373867750168e+01
-1.286993684992194176e+01
1.848846585862338543e+01
3.811747794784605503e+01
4.541904459707438946e+01
6.161578914709389210e+01
6.161743859015405178e+01
4.941543074324727058e+01
3.821022784523665905e+01
9.235995873808860779e+00
-3.732802208326756954e+01
-6.602662778086960316e+01
-1.081224076282233000e+02
-1.353834902644157410e+02
-1.259394696690142155e+02
-1.121786857917904854e+02
-7.310430611297488213e+01
-1.126754698716104031e+01
5.834591514617204666e+01
1.245165517851710320e+02
1.969787166193127632e+02
2.333222792148590088e+02
2.300971351563930511e+02
2.272404193542897701e+02
2.084872378557920456e+02
1.851522126346826553e+02
1.668002699129283428e+02
1.284212716855108738e+02
9.746988507360219955e+01
5.200580582022666931e+01
2.034973575733602047e+01
-1.730955192819237709e+01
-5.145965676754713058e+01
-9.871587360650300980e+01
-1.485730951428413391e+02
-1.849446536749601364e+02
-2.023890184015035629e+02
-1.857229104004800320e+02
-1.631084088385105133e+02
-1.150738078206777573e+02
-5.980641245283186436e+01
1.534935089759528637e+01
8.729160350561141968e+01
1.186579749658703804e+02
1.383264511041343212e+02
1.323250308968126774e+02
9.760357112437486649e+01
5.921205219253897667e+01
1.333752437867224216e+01
-2.255489094182848930e+00
1.609357650391757488e+01
5.654908689297735691e+01
1.284435515664517879e+02
1.912594957798719406e+02
2.271574241872876883e+02
2.305567048639059067e+02
1.933282353729009628e+02
1.313884778954088688e+02
5.002159179933369160e+01
-3.327663748152554035e+01
-1.127364377677440643e+02
-1.781379489600658417e+02
-2.211045137047767639e+02
-2.446735918819904327e+02
-2.470692111104726791e+02
-2.255113034918904305e+02
-1.855099682211875916e+02
-1.711640543937683105e+02
-1.321215680036693811e+02
-9.399567729979753494e+01
-5.312378543987870216e+01
-7.545619687065482140e+00
3.192061631008982658e+01
8.489741518720984459e+01
1.296221146639436483e+02
1.707001218944787979e+02
1.779904204756021500e+02
1.547702444419264793e+02
1.180867447555065155e+02
6.120827618800103664e+01
7.387471545487642288e+00
-2.901873106323182583e+01
-6.924985613673925400e+00
2.754753668047487736e+01
9.092516175843775272e+01
1.472058999910950661e+02
1.796819440200924873e+02
1.891056446693837643e+02
1.690754266008734703e+02
1.402553688138723373e+02
7.704784313030540943e+01
-2.239485481753945351e+00
-8.212777131237089634e+01
-1.511920538712292910e+02
-1.745952243693172932e+02
-1.724795143399387598e+02
-1.578712833300232887e+02
-1.425344002395868301e+02
-1.087142184972763062e+02
-8.161217610724270344e+01
-5.521300167590379715e+01
-4.138188860565423965e+01
-2.611958319693803787e+01
3.299451265484094620e+00
3.792347907647490501e+01
6.900718973577022552e+01
1.230799940600991249e+02
1.500126470066606998e+02
1.670082459151744843e+02
1.632343062162399292e+02
1.408611413836479187e+02
1.374148227274417877e+02
1.029924428090453148e+02
7.522975214943289757e+01
3.971135090477764606e+01
9.568605499342083931e+00
1.164217296987771988e+00
-1.943690503388643265e+01
-3.773414177633821964e+01
-6.427425617352128029e+01
-9.744142865203320980e+01
-1.314884020164608955e+02
-1.637926227431744337e+02
-1.737284845560789108e+02
-1.473085851855576038e+02
-1.035536645017564297e+02
-4.607706661149859428e+01
3.860637067630887032e+01
1.164122103638947010e+02
1.827955971807241440e+02
1.990334728639572859e+02
1.774213704764842987e+02
1.225486854314804077e+02
6.187447549216449261e+01
-1.616238350793719292e+01
-9.443011722154915333e+01
-1.730089147835969925e+02
-2.218525056093931198e+02
-2.414448190852999687e+02
-2.181762042120099068e+02
-1.584223477877676487e+02
-8.581157489120960236e+01
-4.577684028074145317e+00
7.642573977261781693e+01
1.332636824920773506e+02
1.649418088793754578e+02
1.677678121626377106e+02
1.390415159612894058e+02
7.929314488172531128e+01
8.921431401744484901e+00
-5.653933065570890903e+01
-1.138817228376865387e+02
-1.546714030280709267e+02
-1.632735924366861582e+02
-1.460808787979185581e+02
-9.790282683074474335e+01
-2.677271556481719017e+01
5.822508217766880989e+01
1.407967196553945541e+02
1.891881638467311859e+02
2.085726393461227417e+02
1.778020496219396591e+02
1.247232268154621124e+02
5.169730433449149132e+01
-2.124366553127765656e+01
-7.525468888878822327e+01
-1.139489640556275845e+02
-1.222333734910935163e+02
-1.282351450808346272e+02
-1.204123948588967323e+02
-1.082714690864086151e+02
-1.177163956277072430e+02
-1.182231212258338928e+02
-1.402759894356131554e+02
-1.313698245417326689e+02
-1.179163158163428307e+02
-8.876755684986710548e+01
-4.935668742470443249e+01
-2.950977355241775513e+01
5.553334666416049004e+00
2.147779102623462677e+01
4.025131581351161003e+01
5.463258971273899078e+01
5.971368347108364105e+01
4.973472634702920914e+01
2.722525390610098839e+01
1.918483143672347069e+00
-5.845210142433643341e-02
-6.643418939784169197e+00
-1.324906660802662373e+01
-1.003768053837120533e+01
-1.302206652984023094e+01
-6.556094609200954437e+00
4.331041648983955383e-01
-9.050238596275448799e+00
-2.749646060541272163e+01
-4.263373688235878944e+01
-7.928211744502186775e+01
-1.033505739849060774e+02
-1.105541545301675797e+02
-8.415205343626439571e+01
-3.870002924092113972e+01
-1.339592918753623962e+00
3.899683091416954994e+01
7.905989755690097809e+01
1.162420976571738720e+02
1.505415093228220940e+02
1.866085880100727081e+02
2.019208317995071411e+02
1.976833705753087997e+02
1.914461795147508383e+02
1.565425863862037659e+02
1.428514216430485249e+02
9.775585413351655006e+01
3.458120115473866463e+01
-3.176354652643203735e+01
-8.088627319782972336e+01
-1.064084260798990726e+02
-1.156361945960670710e+02
-8.487466360814869404e+01
-8.434161533787846565e+01
-4.539772816561162472e+01
-1.388816799037158489e+01
-7.188689516857266426e+00
2.262312507815659046e+01
3.537540803104639053e+01
5.216395382210612297e+01
6.912940427847206593e+01
7.345626444183290005e+01
8.018520136177539825e+01
5.590969843976199627e+01
2.447383646108210087e+01
-8.301676040515303612e+00
-5.566806316003203392e+01
-7.906688994914293289e+01
-1.262768279854208231e+02
-1.654794749803841114e+02
-1.845588105209171772e+02
-1.803466040864586830e+02
-1.428101250268518925e+02
-8.509503044933080673e+01
-1.846243227832019329e+01
2.571171176619827747e+01
5.847994593717157841e+01
6.728422513790428638e+01
4.312760230526328087e+01
1.591762786917388439e+01
-1.483352258056402206e+01
-4.078711859695613384e+01
-4.552309616655111313e+01
-4.688258168101310730e+01
-2.311131448112428188e+01
-2.241683200374245644e+01
-2.366259727627038956e+01
1.031214590370655060e+01
7.859869040548801422e-01
-2.511397117748856544e+01
-7.585754756629467010e+01
-1.210276993736624718e+02
-1.456040415614843369e+02
-1.413781966678798199e+02
-1.024968852773308754e+02
-6.321645234711468220e+01
1.368420110829174519e+01
7.466202085465192795e+01
1.108492607623338699e+02
1.320672390963882208e+02
1.294254268705844879e+02
1.081609203964471817e+02
4.265827512182295322e+01
-3.640017470344901085e+00
-3.535538766905665398e+01
-4.905492843128740788e+01
-5.353859432041645050e+00
2.602261547371745110e+01
4.969469725526869297e+01
5.579424552619457245e+01
5.950815109908580780e+01
6.114687283150851727e+01
4.757470563426613808e+01
2.671888756193220615e+01
1.140538569167256355e+01
-1.556643828749656677e+00
-2.263685025274753571e+00
-5.741378176957368851e+00
-2.718494206666946411e+00
-4.172409325651824474e+01
-5.415723149664700031e+01
-6.445264195650815964e+01
-4.570601462572813034e+01
8.321436174213886261e+00
7.009911776147782803e+01
1.249498177617788315e+02
1.710319564826786518e+02
2.199933191649615765e+02
2.366046334654092789e+02
2.217851863391697407e+02
1.870856763124465942e+02
1.314602562636137009e+02
7.226599713042378426e+01
2.823057878203690052e+01
1.835352845489978790e+00
4.078613467514514923e+00
5.205041084438562393e+01
1.168936918303370476e+02
1.600822189301252365e+02
1.931386798322200775e+02
2.041954829841852188e+02
1.769009275846183300e+02
1.238492399975657463e+02
5.873032834194600582e+01
-1.922142394818365574e+01
-9.478669588267803192e+01
-1.464685768447816372e+02
-2.068915396444499493e+02
-2.330620559286326170e+02
-2.166178957223892212e+02
-1.907637055460363626e+02
-1.523189910948276520e+02
-1.165656839907169342e+02
-8.833738259412348270e+01
-7.251398864015936852e+01
-6.367387269809842110e+01
-6.314452097937464714e+01
-6.836169132590293884e+01
-9.358461961150169373e+01
-1.127013755850493908e+02
-1.374200815372169018e+02
-1.512669091597199440e+02
-1.545100173596292734e+02
-1.572470392882823944e+02
-1.157308838777244091e+02
-9.424043523147702217e+01
-8.138113290071487427e+01
-4.351100060343742371e+01
-3.363811364956200123e+01
-1.803859647177159786e+01
-1.572326791472733021e+01
-1.734236311540007591e+01
-6.956812459975481033e-01
7.309474006295204163e+00
3.152695712447166443e+01
5.058107403852045536e+01
6.941668818891048431e+01
1.171012131143361330e+02
1.459250056669116020e+02
1.638944913651794195e+02
1.577356711030006409e+02
1.458923467397689819e+02
1.148085208833217621e+02
8.835293345153331757e+01
6.530988740175962448e+01
5.055134817026555538e+01
5.032255801744759083e+01
6.981885010004043579e+01
9.207241809740662575e+01
1.155119284801185131e+02
1.287839952930808067e+02
1.284168740715831518e+02
9.984590984135866165e+01
5.611284667812287807e+01
1.419474164023995399e+00
-7.301788162440061569e+01
-1.439830583482980728e+02
-1.827633561193943024e+02
-1.931311777383089066e+02
-1.667545658424496651e+02
-1.244236200377345085e+02
-6.051937480270862579e+01
-1.029014280810952187e+01
3.117672963440418243e+01
4.181958649866282940e+01
3.140629413723945618e+01
-1.189425587840378284e+01
-5.707524696923792362e+01
-9.684520331211388111e+01
-1.481933003365993500e+02
-1.711896883472800255e+02
-1.939323365986347198e+02
-1.990273689255118370e+02
-2.028411238156259060e+02
-1.988915340006351471e+02
-1.814420675914734602e+02
-1.389187083095312119e+02
-5.498131869733333588e+01
4.378532256372272968e+01
1.046903002336621284e+02
1.722415748536586761e+02
2.258902473673224449e+02
2.719242039322853088e+02
2.748551026433706284e+02
2.405382559299468994e+02
1.782112878840416670e+02
1.056458639167249203e+02
2.575320258736610413e+01
-5.917139880731701851e+01
-1.335430921502411366e+02
-1.669634283259510994e+02
-1.445701391100883484e+02
-8.652430181205272675e+01
1.270982248894870281e+01
1.284583855122327805e+02
2.025094703063368797e+02
2.236536940932273865e+02
2.081547487378120422e+02
1.441565489880740643e+02
7.628892209753394127e+01
-3.182385957427322865e+01
-1.359675209894776344e+02
-1.957141847088932991e+02
-2.129470801241695881e+02
-1.986940616816282272e+02
-1.515959797687828541e+02
-1.126432662233710289e+02
-8.218568830937147141e+01
-6.591710638254880905e+01
-5.491511559672653675e+01
-5.234246971458196640e+01
-6.079792552068829536e+01
-7.640658693015575409e+01
-5.243986675702035427e+01
5.002290084958076477e-01
8.311254686117172241e+01
1.599745040386915207e+02
2.012039075493812561e+02
2.041933658123016357e+02
1.866661579832434654e+02
1.471616250723600388e+02
8.893283625878393650e+01
3.065331579744815826e+01
-2.116165610775351524e+01
-4.055832316167652607e+01
-4.318631685525178909e+01
-3.511014924198389053e+01
5.578379258513450623e-01
5.679902834445238113e+01
1.275193386822938919e+02
1.762386050485074520e+02
1.770700037777423859e+02
1.506771676018834114e+02
1.201051176637411118e+02
7.234641316160559654e+01
3.705650342628359795e+00
-6.517564940266311169e+01
-1.256191640459001064e+02
-1.750412312597036362e+02
-1.960214264765381813e+02
-1.944508207514882088e+02
-1.845716034173965454e+02
-1.573113487660884857e+02
-1.134036468043923378e+02
-5.137116949819028378e+01
2.686899150349199772e+01
1.024174639135599136e+02
1.539056396260857582e+02
1.977313582897186279e+02
2.085316874980926514e+02
1.897155830264091492e+02
1.617181310653686523e+02
1.211835699975490570e+02
6.511995563469827175e+01
2.814413640648126602e+00
-6.515865575894713402e+01
-1.214596974700689316e+02
-1.505352124981582165e+02
-1.605670347064733505e+02
-1.415611876994371414e+02
-9.938638946413993835e+01
-2.927355280146002769e+01
4.557747800834476948e+01
1.111689470075070858e+02
1.346342220455408096e+02
1.287935961000621319e+02
1.105718053225427866e+02
7.336780990660190582e+01
3.523766819387674332e+01
-1.806716356240212917e+01
-3.393350325711071491e+01
-6.911634089611470699e+01
-1.113901666570454836e+02
-1.359741768650710583e+02
-1.525317277219146490e+02
-1.584489031061530113e+02
-1.573249713443219662e+02
-1.560398668497800827e+02
-1.171173203121870756e+02
-8.162599247507750988e+01
-3.137112345919013023e+01
2.112005427479743958e+01
7.064168142154812813e+01
1.004741628672927618e+02
8.828721874952316284e+01
7.241934634931385517e+01
3.479538412578403950e+01
-1.657262787222862244e+00
-5.029559278488159180e+01
-1.153888264857232571e+02
-1.519052273370325565e+02
-1.924488946795463562e+02
-1.962879038974642754e+02
-1.701043955981731415e+02
-1.148809570446610451e+02
-4.384482817351818085e+01
3.550798224285244942e+01
1.036314862389117479e+02
1.499478817731142044e+02
1.668760608285665512e+02
1.537934263013303280e+02
1.118953684512525797e+02
6.193232476711273193e+01
-3.553395960479974747e+00
-5.878682403638958931e+01
-1.045689840707927942e+02
-1.199359678160399199e+02
-1.196726499870419502e+02
-8.244417952373623848e+01
-7.923228187486529350e+00
6.775283073633909225e+01
1.403651456534862518e+02
1.637185316383838654e+02
1.377174967825412750e+02
1.056379959583282471e+02
5.973313983529806137e+01
4.567140424624085426e+00
-1.064142953976988792e+01
-6.132743507623672485e+00
2.235596528090536594e+01
7.546807339042425156e+01
1.334486018978059292e+02
1.660309589207172394e+02
1.836590848714113235e+02
1.543366943448781967e+02
8.596962750330567360e+01
1.754360553249716759e+01
-5.590335412137210369e+01
-1.215977893322706223e+02
-1.752675336450338364e+02
-2.175410658866167068e+02
-2.249337237440049648e+02
-1.847328053303062916e+02
-1.122799519188702106e+02
-1.744631066173315048e+01
5.204177029244601727e+01
1.166950434595346451e+02
1.580033837407827377e+02
1.666314501799643040e+02
1.413934855163097382e+02
9.070153913460671902e+01
3.544765330106019974e+01
-2.088229111209511757e+01
-5.206502907723188400e+01
-6.033537994883954525e+01
-5.292915763705968857e+01
-4.137030916847288609e+01
-3.528011692687869072e+01
-3.992990656197071075e+01
-4.295458640158176422e+01
-4.436963621154427528e+01
-6.249916833266615868e+01
-6.389535805024206638e+01
-6.295292842574417591e+01
-5.234972589649260044e+01
-2.467131032794713974e+01
1.615614439360797405e+01
5.839942327886819839e+01
1.176789906695485115e+02
1.785258872732520103e+02
2.150396796315908432e+02
2.426116912532597780e+02
2.426482024379074574e+02
2.073611990958452225e+02
1.742359488978981972e+02
1.245125979036092758e+02
5.682062931545078754e+01
-7.872615970671176910e+00
-7.688372583687305450e+01
-1.139277258645743132e+02
-1.440595352277159691e+02
-1.663825368285179138e+02
-1.691715847179293633e+02
-1.495664165467023849e+02
-1.216879892442375422e+02
-8.874751994200050831e+01
-5.648157559521496296e+01
-7.083227593824267387e+01
-7.046154623478651047e+01
-7.602490906976163387e+01
-1.025350950509309769e+02
-1.046826533041894436e+02
-1.366257736049592495e+02
-1.500146101415157318e+02
-1.426318705826997757e+02
-1.398168483003973961e+02
-1.047470086440443993e+02
-5.608801517076790333e+01
-1.222275539860129356e+01
5.522184793651103973e+01
1.185423554256558418e+02
1.825844662114977837e+02
2.252225670814514160e+02
2.326228464543819427e+02
2.269779860675334930e+02
2.027932901754975319e+02
1.787120031137019396e+02
1.584363255649805069e+02
1.412794378772377968e+02
1.345525034815073013e+02
1.182985453270375729e+02
1.020018022116273642e+02
7.102222076803445816e+01
3.566440176218748093e+01
-1.470708973333239555e+01
-7.970834600739181042e+01
-1.268452191799879074e+02
-1.787453406713902950e+02
-2.198073529042303562e+02
-2.553636398278176785e+02
-2.518499694652855396e+02
-2.390321792513132095e+02
-1.810133171528577805e+02
-8.805151174031198025e+01
1.106318802945315838e+01
1.302157510966062546e+02
2.068924928531050682e+02
2.629944517761468887e+02
2.788108901679515839e+02
2.616021801233291626e+02
2.108258527666330338e+02
1.461826306432485580e+02
7.255707661062479019e+01
-2.468488268554210663e+01
-1.027711577136069536e+02
-1.560446046143770218e+02
-1.954294558539986610e+02
-1.983108052499592304e+02
-1.759634446855634451e+02
-1.489592060223221779e+02
-1.147833148147910833e+02
-6.582982967607676983e+01
-4.819111017324030399e+01
-4.500818969681859016e+01
-4.100429167971014977e+01
-5.026829607598483562e+01
-4.407917733490467072e+01
-2.988270770572125912e+01
-1.264610724523663521e+01
3.243164383620023727e+01
6.692266046069562435e+01
9.768796214833855629e+01
1.273612482249736786e+02
1.429480423182249069e+02
1.300211140662431717e+02
1.005602196175605059e+02
5.859234173595905304e+01
1.347819025628268719e+01
-2.776916864514350891e+01
-6.630552895739674568e+01
-1.038212688025087118e+02
-1.287933753877878189e+02
-1.337684056367725134e+02
-1.101748562902212143e+02
-9.129546420648694038e+01
-5.949144278652966022e+01
-3.244597356021404266e+01
-1.378579617291688919e+01
8.911473907530307770e+00
4.675152370892465115e+01
1.040127243455499411e+02
1.441027078330516815e+02
1.796859327852725983e+02
1.909765673168003559e+02
1.838743650913238525e+02
1.779721108675003052e+02
1.455429678186774254e+02
1.117079731356352568e+02
6.796550513803958893e+01
2.154080263711512089e+01
-2.959708563238382339e+01
-7.133540619537234306e+01
-1.029628155622631311e+02
-1.212471021488308907e+02
-1.118726515099406242e+02
-1.146595911886543036e+02
-1.067853573635220528e+02
-1.000731911770999432e+02
-1.251370172202587128e+02
-1.149630057625472546e+02
-1.293966964483261108e+02
-1.531144583672285080e+02
-1.601500260718166828e+02
-1.451388382203876972e+02
-1.193944434449076653e+02
-7.445796436071395874e+01
-2.019917345605790615e+01
3.811190087720751762e+01
8.854421480000019073e+01
1.384970296472311020e+02
1.556251865923404694e+02
1.401600360870361328e+02
1.233403718173503876e+02
8.701009678840637207e+01
4.717651296406984329e+01
-3.992820311337709427e+00
-5.456871961429715157e+01
-8.890195652097463608e+01
-9.507244671881198883e+01
-7.493182417750358582e+01
-4.205638283118605614e+01
8.628118671476840973e+00
5.514202834665775299e+01
9.420646255090832710e+01
1.200235103219747543e+02
1.298705364968627691e+02
1.265310363024473190e+02
1.122465499937534332e+02
8.895014715194702148e+01
4.970880515314638615e+01
5.021724045276641846e+00
-2.309035350568592548e+01
-4.797349648177623749e+01
-6.522566354274749756e+01
-7.404065275192260742e+01
-8.545046927034854889e+01
-1.101062355116009712e+02
-1.186279028356075287e+02
-1.074151066616177559e+02
-8.874247174337506294e+01
-7.293114721775054932e+01
-6.078036586940288544e+01
-3.530451212264597416e+01
-2.945605447515845299e+00
3.209380849637091160e+01
7.749360983818769455e+01
9.956501504778862000e+01
1.133935517072677612e+02
1.097571733593940735e+02
9.313314378261566162e+01
7.862084320187568665e+01
4.521801894344389439e+01
2.292914546653628349e+01
-2.726680984720587730e+00
-1.485492134094238281e+01
-2.347585058398544788e+01
-3.410355408303439617e+01
-5.142256557196378708e+01
-5.370765795558691025e+01
-5.391602782905101776e+01
-5.048588964343070984e+01
-5.885435202717781067e+01
-5.560722196102142334e+01
-4.857780889794230461e+01
-3.669530640542507172e+01
-3.281258887797594070e+01
-2.735158931463956833e+01
-1.400608163513243198e+01
-9.783751897513866425e+00
9.187695473432540894e+00
2.668008106201887131e+01
3.514639094844460487e+01
3.919991502165794373e+01
4.130951496958732605e+01
5.016813817620277405e+01
5.117159327864646912e+01
4.650934480130672455e+01
3.526913866400718689e+01
2.400387313961982727e+01
1.360000986419618130e+01
2.247880326583981514e+00
-1.137463648617267609e+01
-1.777677305601537228e+01
-2.144298924133181572e+01
-2.484380524419248104e+01
-2.147353497892618179e+01
-1.157237224653363228e+01
2.556486018002033234e-01
9.490495905280113220e+00
1.594446606934070587e+01
2.351126222312450409e+01
2.818342739343643188e+01
2.892158641666173935e+01
2.437922149151563644e+01
1.833802033960819244e+01
8.596580315381288528e+00
-1.184910133481025696e+00
-7.741529352962970734e+00
-1.710442119836807251e+01
-2.129291951656341553e+01
-2.337112209200859070e+01
-2.261172244139015675e+01
-1.797425162047147751e+01
-1.016511052288115025e+01
-1.685219291597604752e+00
5.893174443393945694e+00
9.434662908315658569e+00
1.121149104833602905e+01
1.045854181051254272e+01
8.385675311088562012e+00
5.253071213141083717e+00
1.780154731124639511e+00
-8.338697254657745361e-01
-2.445273831486701965e+00
-4.234237000346183777e+00
-4.085495829582214355e+00
-3.345099721103906631e+00
-1.369230136275291443e+00
-4.115686155855655670e-01
1.198948025703430176e-01
2.501246780157089233e-01
-4.353193566203117371e-03
